PSTAR: Stopping Powers and Range Tables for Protons

BONE, CORTICAL (ICRP)                                                   

Kinetic  	Electron.	Nuclear  	Total    	CSDA     	Projected	Detour	
Energy   	Stp. Pow.	Stp. Pow.	Stp. Pow.	Range    	Range    	Factor	
MeV      	MeV cm2/g	MeV cm2/g	MeV cm2/g	g/cm2    	g/cm2    	      	

1.000E-03	1.235E+02	2.708E+01	1.506E+02	8.301E-06	3.189E-06	0.3841	
1.500E-03	1.513E+02	2.231E+01	1.736E+02	1.137E-05	4.788E-06	0.4213	
2.000E-03	1.747E+02	1.923E+01	1.939E+02	1.409E-05	6.364E-06	0.4517	
2.500E-03	1.953E+02	1.703E+01	2.124E+02	1.655E-05	7.896E-06	0.4771	
3.000E-03	2.140E+02	1.536E+01	2.293E+02	1.881E-05	9.386E-06	0.4989	
4.000E-03	2.461E+02	1.296E+01	2.591E+02	2.291E-05	1.225E-05	0.5346	
5.000E-03	2.745E+02	1.130E+01	2.858E+02	2.658E-05	1.497E-05	0.5631	
6.000E-03	3.002E+02	1.006E+01	3.103E+02	2.993E-05	1.756E-05	0.5867	
7.000E-03	3.238E+02	9.102E+00	3.329E+02	3.304E-05	2.004E-05	0.6066	
8.000E-03	3.456E+02	8.331E+00	3.539E+02	3.595E-05	2.243E-05	0.6237	
9.000E-03	3.659E+02	7.696E+00	3.736E+02	3.870E-05	2.472E-05	0.6387	
1.000E-02	3.850E+02	7.162E+00	3.922E+02	4.132E-05	2.694E-05	0.6520	
1.250E-02	4.230E+02	6.132E+00	4.291E+02	4.740E-05	3.221E-05	0.6797	
1.500E-02	4.557E+02	5.386E+00	4.611E+02	5.301E-05	3.720E-05	0.7018	
1.750E-02	4.847E+02	4.818E+00	4.895E+02	5.827E-05	4.196E-05	0.7200	
2.000E-02	5.105E+02	4.369E+00	5.149E+02	6.325E-05	4.651E-05	0.7354	
2.250E-02	5.338E+02	4.003E+00	5.378E+02	6.800E-05	5.090E-05	0.7486	
2.500E-02	5.548E+02	3.700E+00	5.584E+02	7.256E-05	5.515E-05	0.7602	
2.750E-02	5.737E+02	3.443E+00	5.771E+02	7.696E-05	5.928E-05	0.7703	
3.000E-02	5.909E+02	3.223E+00	5.941E+02	8.123E-05	6.331E-05	0.7794	
3.500E-02	6.208E+02	2.864E+00	6.237E+02	8.943E-05	7.111E-05	0.7951	
4.000E-02	6.459E+02	2.583E+00	6.484E+02	9.729E-05	7.862E-05	0.8081	
4.500E-02	6.665E+02	2.356E+00	6.689E+02	1.049E-04	8.592E-05	0.8192	
5.000E-02	6.833E+02	2.169E+00	6.855E+02	1.123E-04	9.304E-05	0.8288	
5.500E-02	6.966E+02	2.011E+00	6.986E+02	1.195E-04	1.000E-04	0.8373	
6.000E-02	7.068E+02	1.877E+00	7.087E+02	1.266E-04	1.069E-04	0.8448	
6.500E-02	7.144E+02	1.761E+00	7.162E+02	1.336E-04	1.138E-04	0.8516	
7.000E-02	7.197E+02	1.659E+00	7.214E+02	1.406E-04	1.206E-04	0.8577	
7.500E-02	7.230E+02	1.570E+00	7.246E+02	1.475E-04	1.273E-04	0.8633	
8.000E-02	7.245E+02	1.490E+00	7.260E+02	1.544E-04	1.341E-04	0.8685	
8.500E-02	7.245E+02	1.419E+00	7.259E+02	1.612E-04	1.408E-04	0.8732	
9.000E-02	7.231E+02	1.354E+00	7.244E+02	1.681E-04	1.476E-04	0.8777	
9.500E-02	7.206E+02	1.296E+00	7.219E+02	1.751E-04	1.544E-04	0.8818	
1.000E-01	7.171E+02	1.243E+00	7.184E+02	1.820E-04	1.612E-04	0.8856	
1.250E-01	6.896E+02	1.035E+00	6.906E+02	2.174E-04	1.961E-04	0.9018	
1.500E-01	6.535E+02	8.901E-01	6.544E+02	2.546E-04	2.328E-04	0.9144	
1.750E-01	6.158E+02	7.829E-01	6.166E+02	2.939E-04	2.717E-04	0.9244	
2.000E-01	5.798E+02	7.001E-01	5.805E+02	3.357E-04	3.131E-04	0.9326	
2.250E-01	5.466E+02	6.341E-01	5.472E+02	3.801E-04	3.571E-04	0.9394	
2.500E-01	5.167E+02	5.802E-01	5.173E+02	4.271E-04	4.037E-04	0.9452	
2.750E-01	4.900E+02	5.350E-01	4.906E+02	4.768E-04	4.530E-04	0.9501	
3.000E-01	4.662E+02	4.966E-01	4.667E+02	5.290E-04	5.049E-04	0.9543	
3.500E-01	4.261E+02	4.349E-01	4.265E+02	6.413E-04	6.163E-04	0.9611	
4.000E-01	3.936E+02	3.876E-01	3.940E+02	7.634E-04	7.376E-04	0.9663	
4.500E-01	3.666E+02	3.500E-01	3.669E+02	8.950E-04	8.685E-04	0.9704	
5.000E-01	3.437E+02	3.194E-01	3.440E+02	1.036E-03	1.009E-03	0.9737	
5.500E-01	3.240E+02	2.940E-01	3.243E+02	1.186E-03	1.157E-03	0.9763	
6.000E-01	3.067E+02	2.725E-01	3.070E+02	1.344E-03	1.315E-03	0.9785	
6.500E-01	2.915E+02	2.540E-01	2.918E+02	1.511E-03	1.481E-03	0.9803	
7.000E-01	2.780E+02	2.380E-01	2.782E+02	1.687E-03	1.656E-03	0.9818	
7.500E-01	2.658E+02	2.241E-01	2.660E+02	1.871E-03	1.839E-03	0.9832	
8.000E-01	2.547E+02	2.116E-01	2.549E+02	2.063E-03	2.030E-03	0.9843	
8.500E-01	2.447E+02	2.006E-01	2.449E+02	2.263E-03	2.230E-03	0.9853	
9.000E-01	2.355E+02	1.907E-01	2.357E+02	2.471E-03	2.437E-03	0.9861	
9.500E-01	2.271E+02	1.818E-01	2.273E+02	2.687E-03	2.652E-03	0.9869	
1.000E+00	2.194E+02	1.737E-01	2.196E+02	2.911E-03	2.875E-03	0.9876	
1.250E+00	1.884E+02	1.424E-01	1.885E+02	4.144E-03	4.103E-03	0.9900	
1.500E+00	1.661E+02	1.210E-01	1.662E+02	5.560E-03	5.513E-03	0.9915	
1.750E+00	1.490E+02	1.054E-01	1.491E+02	7.151E-03	7.098E-03	0.9926	
2.000E+00	1.354E+02	9.347E-02	1.355E+02	8.912E-03	8.852E-03	0.9933	
2.250E+00	1.244E+02	8.404E-02	1.245E+02	1.084E-02	1.077E-02	0.9939	
2.500E+00	1.153E+02	7.640E-02	1.154E+02	1.293E-02	1.285E-02	0.9943	
2.750E+00	1.075E+02	7.008E-02	1.076E+02	1.517E-02	1.509E-02	0.9946	
3.000E+00	1.009E+02	6.476E-02	1.009E+02	1.757E-02	1.748E-02	0.9949	
3.500E+00	8.995E+01	5.628E-02	9.000E+01	2.283E-02	2.272E-02	0.9953	
4.000E+00	8.137E+01	4.983E-02	8.142E+01	2.868E-02	2.855E-02	0.9956	
4.500E+00	7.444E+01	4.474E-02	7.448E+01	3.511E-02	3.496E-02	0.9958	
5.000E+00	6.870E+01	4.062E-02	6.874E+01	4.210E-02	4.193E-02	0.9960	
5.500E+00	6.386E+01	3.722E-02	6.390E+01	4.965E-02	4.946E-02	0.9962	
6.000E+00	5.972E+01	3.436E-02	5.976E+01	5.775E-02	5.753E-02	0.9963	
6.500E+00	5.614E+01	3.192E-02	5.617E+01	6.638E-02	6.614E-02	0.9964	
7.000E+00	5.299E+01	2.981E-02	5.302E+01	7.555E-02	7.528E-02	0.9965	
7.500E+00	5.022E+01	2.797E-02	5.025E+01	8.524E-02	8.495E-02	0.9966	
8.000E+00	4.775E+01	2.635E-02	4.777E+01	9.545E-02	9.513E-02	0.9966	
8.500E+00	4.553E+01	2.491E-02	4.556E+01	1.062E-01	1.058E-01	0.9967	
9.000E+00	4.353E+01	2.363E-02	4.356E+01	1.174E-01	1.170E-01	0.9967	
9.500E+00	4.172E+01	2.247E-02	4.174E+01	1.291E-01	1.287E-01	0.9968	
1.000E+01	4.006E+01	2.143E-02	4.008E+01	1.414E-01	1.409E-01	0.9968	
1.250E+01	3.357E+01	1.741E-02	3.359E+01	2.098E-01	2.092E-01	0.9970	
1.500E+01	2.903E+01	1.469E-02	2.904E+01	2.901E-01	2.892E-01	0.9971	
1.750E+01	2.566E+01	1.272E-02	2.568E+01	3.818E-01	3.808E-01	0.9972	
2.000E+01	2.306E+01	1.123E-02	2.307E+01	4.847E-01	4.834E-01	0.9973	
2.500E+01	1.928E+01	9.107E-03	1.929E+01	7.228E-01	7.209E-01	0.9974	
2.750E+01	1.787E+01	8.327E-03	1.788E+01	8.575E-01	8.553E-01	0.9974	
3.000E+01	1.667E+01	7.673E-03	1.667E+01	1.002E+00	9.999E-01	0.9974	
3.500E+01	1.473E+01	6.637E-03	1.474E+01	1.322E+00	1.319E+00	0.9975	
4.000E+01	1.325E+01	5.852E-03	1.326E+01	1.680E+00	1.676E+00	0.9976	
4.500E+01	1.207E+01	5.236E-03	1.207E+01	2.076E+00	2.071E+00	0.9976	
5.000E+01	1.111E+01	4.740E-03	1.111E+01	2.508E+00	2.502E+00	0.9976	
5.500E+01	1.031E+01	4.332E-03	1.031E+01	2.976E+00	2.969E+00	0.9977	
6.000E+01	9.631E+00	3.990E-03	9.635E+00	3.478E+00	3.470E+00	0.9977	
6.500E+01	9.052E+00	3.699E-03	9.055E+00	4.013E+00	4.004E+00	0.9977	
7.000E+01	8.549E+00	3.448E-03	8.553E+00	4.582E+00	4.572E+00	0.9978	
7.500E+01	8.110E+00	3.230E-03	8.113E+00	5.182E+00	5.171E+00	0.9978	
8.000E+01	7.721E+00	3.038E-03	7.724E+00	5.814E+00	5.801E+00	0.9978	
8.500E+01	7.376E+00	2.869E-03	7.378E+00	6.477E+00	6.463E+00	0.9978	
9.000E+01	7.066E+00	2.717E-03	7.069E+00	7.169E+00	7.154E+00	0.9978	
9.500E+01	6.787E+00	2.582E-03	6.789E+00	7.891E+00	7.874E+00	0.9979	
1.000E+02	6.534E+00	2.459E-03	6.536E+00	8.642E+00	8.624E+00	0.9979	
1.250E+02	5.558E+00	1.990E-03	5.560E+00	1.281E+01	1.278E+01	0.9979	
1.500E+02	4.892E+00	1.674E-03	4.893E+00	1.762E+01	1.758E+01	0.9980	
1.750E+02	4.408E+00	1.446E-03	4.410E+00	2.301E+01	2.296E+01	0.9981	
2.000E+02	4.042E+00	1.273E-03	4.043E+00	2.894E+01	2.888E+01	0.9981	
2.250E+02	3.754E+00	1.139E-03	3.755E+00	3.536E+01	3.530E+01	0.9981	
2.500E+02	3.522E+00	1.030E-03	3.523E+00	4.224E+01	4.217E+01	0.9982	
2.750E+02	3.332E+00	9.410E-04	3.333E+00	4.954E+01	4.946E+01	0.9982	
3.000E+02	3.173E+00	8.664E-04	3.174E+00	5.723E+01	5.713E+01	0.9983	
3.500E+02	2.923E+00	7.484E-04	2.924E+00	7.368E+01	7.355E+01	0.9983	
4.000E+02	2.736E+00	6.593E-04	2.737E+00	9.138E+01	9.123E+01	0.9984	
4.500E+02	2.592E+00	5.896E-04	2.593E+00	1.102E+02	1.100E+02	0.9984	
5.000E+02	2.478E+00	5.335E-04	2.479E+00	1.299E+02	1.297E+02	0.9985	
5.500E+02	2.386E+00	4.874E-04	2.386E+00	1.505E+02	1.502E+02	0.9985	
6.000E+02	2.310E+00	4.488E-04	2.311E+00	1.718E+02	1.715E+02	0.9985	
6.500E+02	2.246E+00	4.160E-04	2.246E+00	1.937E+02	1.935E+02	0.9986	
7.000E+02	2.192E+00	3.878E-04	2.192E+00	2.163E+02	2.160E+02	0.9986	
7.500E+02	2.145E+00	3.633E-04	2.146E+00	2.393E+02	2.390E+02	0.9986	
8.000E+02	2.105E+00	3.417E-04	2.106E+00	2.629E+02	2.625E+02	0.9987	
8.500E+02	2.071E+00	3.227E-04	2.071E+00	2.868E+02	2.864E+02	0.9987	
9.000E+02	2.041E+00	3.057E-04	2.041E+00	3.111E+02	3.107E+02	0.9987	
9.500E+02	2.015E+00	2.905E-04	2.015E+00	3.358E+02	3.354E+02	0.9987	
1.000E+03	1.992E+00	2.767E-04	1.992E+00	3.607E+02	3.603E+02	0.9988	
1.500E+03	1.864E+00	1.887E-04	1.864E+00	6.218E+02	6.211E+02	0.9989	
2.000E+03	1.821E+00	1.439E-04	1.821E+00	8.938E+02	8.929E+02	0.9991	
2.500E+03	1.807E+00	1.167E-04	1.807E+00	1.170E+03	1.169E+03	0.9992	
3.000E+03	1.807E+00	9.832E-05	1.807E+00	1.446E+03	1.445E+03	0.9992	
4.000E+03	1.822E+00	7.506E-05	1.822E+00	1.998E+03	1.997E+03	0.9993	
5.000E+03	1.843E+00	6.090E-05	1.843E+00	2.544E+03	2.542E+03	0.9994	
6.000E+03	1.864E+00	5.134E-05	1.864E+00	3.083E+03	3.082E+03	0.9995	
7.000E+03	1.886E+00	4.445E-05	1.886E+00	3.617E+03	3.615E+03	0.9995	
8.000E+03	1.905E+00	3.923E-05	1.905E+00	4.144E+03	4.142E+03	0.9995	
9.000E+03	1.924E+00	3.513E-05	1.924E+00	4.666E+03	4.664E+03	0.9996	
1.000E+04	1.941E+00	3.184E-05	1.941E+00	5.184E+03	5.182E+03	0.9996